         f                ZLong.real        ZLong.imaginary   
        [Hz]                [Ohm]                [Ohm]        
        1.100000e+00         1.458383e-12         8.685252e-09
        1.200000e+00         1.735596e-12         9.474820e-09
        1.300000e+00         2.036915e-12         1.026439e-08
        1.400000e+00         2.362339e-12         1.105396e-08
        1.500000e+00         2.711869e-12         1.184352e-08
        1.600000e+00         3.085504e-12         1.263309e-08
        1.700000e+00         3.483245e-12         1.342266e-08
        1.800000e+00         3.905091e-12         1.421223e-08
        1.900000e+00         4.351043e-12         1.500180e-08
        2.000000e+00         4.821100e-12         1.579137e-08
        2.100000e+00         5.315263e-12         1.658093e-08
        2.200000e+00         5.833531e-12         1.737050e-08
        2.300000e+00         6.375904e-12         1.816007e-08
        2.400000e+00         6.942383e-12         1.894964e-08
        2.500000e+00         7.532968e-12         1.973921e-08
        2.600000e+00         8.147658e-12         2.052877e-08
        2.700000e+00         8.786454e-12         2.131834e-08
        2.800000e+00         9.449355e-12         2.210791e-08
        2.900000e+00         1.013636e-11         2.289748e-08
        3.000000e+00         1.084747e-11         2.368704e-08
        3.100000e+00         1.158269e-11         2.447661e-08
        3.200000e+00         1.234201e-11         2.526618e-08
        3.300000e+00         1.312544e-11         2.605575e-08
        3.400000e+00         1.393298e-11         2.684532e-08
        3.500000e+00         1.476461e-11         2.763488e-08
        3.600000e+00         1.562036e-11         2.842445e-08
        3.700000e+00         1.650021e-11         2.921402e-08
        3.800000e+00         1.740416e-11         3.000359e-08
        3.900000e+00         1.833223e-11         3.079315e-08
        4.000000e+00         1.928439e-11         3.158272e-08
        4.100000e+00         2.026066e-11         3.237229e-08
        4.200000e+00         2.126104e-11         3.316185e-08
        4.300000e+00         2.228552e-11         3.395142e-08
        4.400000e+00         2.333411e-11         3.474099e-08
        4.500000e+00         2.440680e-11         3.553056e-08
        4.600000e+00         2.550360e-11         3.632012e-08
        4.700000e+00         2.662451e-11         3.710969e-08
        4.800000e+00         2.776952e-11         3.789926e-08
        4.900000e+00         2.893863e-11         3.868882e-08
        5.000000e+00         3.013185e-11         3.947839e-08
        5.100000e+00         3.134918e-11         4.026796e-08
        5.200000e+00         3.259061e-11         4.105752e-08
        5.300000e+00         3.385615e-11         4.184709e-08
        5.400000e+00         3.514579e-11         4.263666e-08
        5.500000e+00         3.645953e-11         4.342622e-08
        5.600000e+00         3.779739e-11         4.421579e-08
        5.700000e+00         3.915935e-11         4.500536e-08
        5.800000e+00         4.054541e-11         4.579492e-08
        5.900000e+00         4.195558e-11         4.658449e-08
        6.000000e+00         4.338985e-11         4.737405e-08
        6.100000e+00         4.484823e-11         4.816362e-08
        6.200000e+00         4.633071e-11         4.895319e-08
        6.300000e+00         4.783730e-11         4.974275e-08
        6.400000e+00         4.936800e-11         5.053232e-08
        6.500000e+00         5.092280e-11         5.132188e-08
        6.600000e+00         5.250171e-11         5.211145e-08
        6.700000e+00         5.410472e-11         5.290101e-08
        6.800000e+00         5.573183e-11         5.369058e-08
        6.900000e+00         5.738305e-11         5.448014e-08
        7.000000e+00         5.905838e-11         5.526971e-08
        7.100000e+00         6.075781e-11         5.605927e-08
        7.200000e+00         6.248135e-11         5.684884e-08
        7.300000e+00         6.422899e-11         5.763840e-08
        7.400000e+00         6.600074e-11         5.842797e-08
        7.500000e+00         6.779659e-11         5.921753e-08
        7.600000e+00         6.961655e-11         6.000710e-08
        7.700000e+00         7.146062e-11         6.079666e-08
        7.800000e+00         7.332879e-11         6.158623e-08
        7.900000e+00         7.522106e-11         6.237579e-08
        8.000000e+00         7.713744e-11         6.316536e-08
        8.100000e+00         7.907792e-11         6.395492e-08
        8.200000e+00         8.104251e-11         6.474448e-08
        8.300000e+00         8.303121e-11         6.553405e-08
        8.400000e+00         8.504401e-11         6.632361e-08
        8.500000e+00         8.708091e-11         6.711317e-08
        8.600000e+00         8.914192e-11         6.790274e-08
        8.700000e+00         9.122704e-11         6.869230e-08
        8.800000e+00         9.333626e-11         6.948186e-08
        8.900000e+00         9.546958e-11         7.027143e-08
        9.000000e+00         9.762701e-11         7.106099e-08
        9.100000e+00         9.980855e-11         7.185055e-08
        9.200000e+00         1.020142e-10         7.264012e-08
        9.300000e+00         1.042439e-10         7.342968e-08
        9.400000e+00         1.064978e-10         7.421924e-08
        9.500000e+00         1.087757e-10         7.500880e-08
        9.600000e+00         1.110778e-10         7.579837e-08
        9.700000e+00         1.134040e-10         7.658793e-08
        9.800000e+00         1.157542e-10         7.737749e-08
        9.900000e+00         1.181286e-10         7.816705e-08
        1.000000e+01         1.205271e-10         7.895661e-08
        1.100000e+01         1.458377e-10         8.685222e-08
        1.200000e+01         1.735588e-10         9.474782e-08
        1.300000e+01         2.036903e-10         1.026434e-07
        1.400000e+01         2.362323e-10         1.105390e-07
        1.500000e+01         2.711848e-10         1.184345e-07
        1.600000e+01         3.085477e-10         1.263300e-07
        1.700000e+01         3.483211e-10         1.342255e-07
        1.800000e+01         3.905048e-10         1.421210e-07
        1.900000e+01         4.350989e-10         1.500165e-07
        2.000000e+01         4.821035e-10         1.579119e-07
        2.100000e+01         5.315183e-10         1.658073e-07
        2.200000e+01         5.833435e-10         1.737027e-07
        2.300000e+01         6.375790e-10         1.815980e-07
        2.400000e+01         6.942248e-10         1.894934e-07
        2.500000e+01         7.532809e-10         1.973886e-07
        2.600000e+01         8.147472e-10         2.052839e-07
        2.700000e+01         8.786237e-10         2.131791e-07
        2.800000e+01         9.449104e-10         2.210743e-07
        2.900000e+01         1.013607e-09         2.289694e-07
        3.000000e+01         1.084714e-09         2.368645e-07
        3.100000e+01         1.158231e-09         2.447596e-07
        3.200000e+01         1.234159e-09         2.526546e-07
        3.300000e+01         1.312496e-09         2.605496e-07
        3.400000e+01         1.393243e-09         2.684446e-07
        3.500000e+01         1.476400e-09         2.763395e-07
        3.600000e+01         1.561967e-09         2.842343e-07
        3.700000e+01         1.649945e-09         2.921291e-07
        3.800000e+01         1.740332e-09         3.000239e-07
        3.900000e+01         1.833128e-09         3.079186e-07
        4.000000e+01         1.928335e-09         3.158132e-07
        4.100000e+01         2.025951e-09         3.237078e-07
        4.200000e+01         2.125977e-09         3.316024e-07
        4.300000e+01         2.228413e-09         3.394968e-07
        4.400000e+01         2.333259e-09         3.473913e-07
        4.500000e+01         2.440514e-09         3.552856e-07
        4.600000e+01         2.550178e-09         3.631800e-07
        4.700000e+01         2.662252e-09         3.710742e-07
        4.800000e+01         2.776736e-09         3.789684e-07
        4.900000e+01         2.893629e-09         3.868625e-07
        5.000000e+01         3.012931e-09         3.947566e-07
        5.100000e+01         3.134643e-09         4.026506e-07
        5.200000e+01         3.258764e-09         4.105445e-07
        5.300000e+01         3.385294e-09         4.184384e-07
        5.400000e+01         3.514233e-09         4.263321e-07
        5.500000e+01         3.645582e-09         4.342259e-07
        5.600000e+01         3.779339e-09         4.421195e-07
        5.700000e+01         3.915506e-09         4.500131e-07
        5.800000e+01         4.054081e-09         4.579066e-07
        5.900000e+01         4.195065e-09         4.658000e-07
        6.000000e+01         4.338459e-09         4.736933e-07
        6.100000e+01         4.484261e-09         4.815866e-07
        6.200000e+01         4.632471e-09         4.894798e-07
        6.300000e+01         4.783091e-09         4.973729e-07
        6.400000e+01         4.936118e-09         5.052659e-07
        6.500000e+01         5.091555e-09         5.131588e-07
        6.600000e+01         5.249400e-09         5.210516e-07
        6.700000e+01         5.409653e-09         5.289444e-07
        6.800000e+01         5.572315e-09         5.368371e-07
        6.900000e+01         5.737385e-09         5.447296e-07
        7.000000e+01         5.904863e-09         5.526221e-07
        7.100000e+01         6.074749e-09         5.605145e-07
        7.200000e+01         6.247044e-09         5.684068e-07
        7.300000e+01         6.421746e-09         5.762990e-07
        7.400000e+01         6.598857e-09         5.841911e-07
        7.500000e+01         6.778375e-09         5.920831e-07
        7.600000e+01         6.960301e-09         5.999750e-07
        7.700000e+01         7.144634e-09         6.078669e-07
        7.800000e+01         7.331376e-09         6.157586e-07
        7.900000e+01         7.520525e-09         6.236502e-07
        8.000000e+01         7.712081e-09         6.315417e-07
        8.100000e+01         7.906045e-09         6.394331e-07
        8.200000e+01         8.102416e-09         6.473243e-07
        8.300000e+01         8.301194e-09         6.552155e-07
        8.400000e+01         8.502380e-09         6.631066e-07
        8.500000e+01         8.705972e-09         6.709975e-07
        8.600000e+01         8.911972e-09         6.788884e-07
        8.700000e+01         9.120379e-09         6.867791e-07
        8.800000e+01         9.331192e-09         6.946697e-07
        8.900000e+01         9.544412e-09         7.025602e-07
        9.000000e+01         9.760039e-09         7.104506e-07
        9.100000e+01         9.978072e-09         7.183409e-07
        9.200000e+01         1.019851e-08         7.262310e-07
        9.300000e+01         1.042136e-08         7.341210e-07
        9.400000e+01         1.064661e-08         7.420109e-07
        9.500000e+01         1.087427e-08         7.499007e-07
        9.600000e+01         1.110433e-08         7.577903e-07
        9.700000e+01         1.133680e-08         7.656799e-07
        9.800000e+01         1.157168e-08         7.735693e-07
        9.900000e+01         1.180896e-08         7.814585e-07
        1.000000e+02         1.204865e-08         7.893476e-07
        1.100000e+02         1.457783e-08         8.682314e-07
        1.200000e+02         1.734747e-08         9.471007e-07
        1.300000e+02         2.035745e-08         1.025954e-06
        1.400000e+02         2.360766e-08         1.104790e-06
        1.500000e+02         2.709796e-08         1.183608e-06
        1.600000e+02         3.082822e-08         1.262406e-06
        1.700000e+02         3.479827e-08         1.341183e-06
        1.800000e+02         3.900796e-08         1.419937e-06
        1.900000e+02         4.345711e-08         1.498667e-06
        2.000000e+02         4.814555e-08         1.577373e-06
        2.100000e+02         5.307309e-08         1.656052e-06
        2.200000e+02         5.823953e-08         1.734703e-06
        2.300000e+02         6.364465e-08         1.813326e-06
        2.400000e+02         6.928823e-08         1.891918e-06
        2.500000e+02         7.517006e-08         1.970479e-06
        2.600000e+02         8.128988e-08         2.049006e-06
        2.700000e+02         8.764746e-08         2.127500e-06
        2.800000e+02         9.424253e-08         2.205958e-06
        2.900000e+02         1.010748e-07         2.284379e-06
        3.000000e+02         1.081441e-07         2.362762e-06
        3.100000e+02         1.154500e-07         2.441106e-06
        3.200000e+02         1.229923e-07         2.519410e-06
        3.300000e+02         1.307707e-07         2.597671e-06
        3.400000e+02         1.387848e-07         2.675889e-06
        3.500000e+02         1.470343e-07         2.754063e-06
        3.600000e+02         1.555190e-07         2.832191e-06
        3.700000e+02         1.642384e-07         2.910272e-06
        3.800000e+02         1.731922e-07         2.988305e-06
        3.900000e+02         1.823801e-07         3.066288e-06
        4.000000e+02         1.918016e-07         3.144221e-06
        4.100000e+02         2.014565e-07         3.222101e-06
        4.200000e+02         2.113442e-07         3.299929e-06
        4.300000e+02         2.214645e-07         3.377701e-06
        4.400000e+02         2.318169e-07         3.455418e-06
        4.500000e+02         2.424010e-07         3.533078e-06
        4.600000e+02         2.532164e-07         3.610680e-06
        4.700000e+02         2.642626e-07         3.688222e-06
        4.800000e+02         2.755392e-07         3.765703e-06
        4.900000e+02         2.870458e-07         3.843123e-06
        5.000000e+02         2.987819e-07         3.920479e-06
        5.100000e+02         3.107470e-07         3.997772e-06
        5.200000e+02         3.229407e-07         4.074998e-06
        5.300000e+02         3.353625e-07         4.152158e-06
        5.400000e+02         3.480118e-07         4.229249e-06
        5.500000e+02         3.608882e-07         4.306272e-06
        5.600000e+02         3.739913e-07         4.383224e-06
        5.700000e+02         3.873203e-07         4.460104e-06
        5.800000e+02         4.008749e-07         4.536912e-06
        5.900000e+02         4.146545e-07         4.613646e-06
        6.000000e+02         4.286586e-07         4.690305e-06
        6.100000e+02         4.428866e-07         4.766887e-06
        6.200000e+02         4.573379e-07         4.843392e-06
        6.300000e+02         4.720120e-07         4.919819e-06
        6.400000e+02         4.869083e-07         4.996165e-06
        6.500000e+02         5.020262e-07         5.072431e-06
        6.600000e+02         5.173652e-07         5.148615e-06
        6.700000e+02         5.329246e-07         5.224715e-06
        6.800000e+02         5.487039e-07         5.300731e-06
        6.900000e+02         5.647023e-07         5.376662e-06
        7.000000e+02         5.809194e-07         5.452506e-06
        7.100000e+02         5.973545e-07         5.528262e-06
        7.200000e+02         6.140068e-07         5.603930e-06
        7.300000e+02         6.308759e-07         5.679508e-06
        7.400000e+02         6.479610e-07         5.754994e-06
        7.500000e+02         6.652615e-07         5.830389e-06
        7.600000e+02         6.827767e-07         5.905690e-06
        7.700000e+02         7.005060e-07         5.980897e-06
        7.800000e+02         7.184486e-07         6.056009e-06
        7.900000e+02         7.366040e-07         6.131025e-06
        8.000000e+02         7.549713e-07         6.205942e-06
        8.100000e+02         7.735498e-07         6.280762e-06
        8.200000e+02         7.923390e-07         6.355481e-06
        8.300000e+02         8.113380e-07         6.430100e-06
        8.400000e+02         8.305462e-07         6.504618e-06
        8.500000e+02         8.499628e-07         6.579032e-06
        8.600000e+02         8.695870e-07         6.653343e-06
        8.700000e+02         8.894182e-07         6.727550e-06
        8.800000e+02         9.094556e-07         6.801650e-06
        8.900000e+02         9.296984e-07         6.875644e-06
        9.000000e+02         9.501459e-07         6.949530e-06
        9.100000e+02         9.707973e-07         7.023307e-06
        9.200000e+02         9.916518e-07         7.096974e-06
        9.300000e+02         1.012709e-06         7.170531e-06
        9.400000e+02         1.033967e-06         7.243976e-06
        9.500000e+02         1.055426e-06         7.317308e-06
        9.600000e+02         1.077086e-06         7.390526e-06
        9.700000e+02         1.098944e-06         7.463630e-06
        9.800000e+02         1.121001e-06         7.536619e-06
        9.900000e+02         1.143255e-06         7.609491e-06
        1.000000e+03         1.165706e-06         7.682246e-06
        1.100000e+03         1.400854e-06         8.403136e-06
        1.200000e+03         1.654734e-06         9.111319e-06
        1.300000e+03         1.926446e-06         9.805984e-06
        1.400000e+03         2.215049e-06         1.048640e-05
        1.500000e+03         2.519569e-06         1.115192e-05
        1.600000e+03         2.839009e-06         1.180197e-05
        1.700000e+03         3.172354e-06         1.243605e-05
        1.800000e+03         3.518579e-06         1.305375e-05
        1.900000e+03         3.876654e-06         1.365473e-05
        2.000000e+03         4.245554e-06         1.423874e-05
        2.100000e+03         4.624263e-06         1.480558e-05
        2.200000e+03         5.011778e-06         1.535513e-05
        2.300000e+03         5.407116e-06         1.588734e-05
        2.400000e+03         5.809319e-06         1.640222e-05
        2.500000e+03         6.217456e-06         1.689983e-05
        2.600000e+03         6.630627e-06         1.738030e-05
        2.700000e+03         7.047965e-06         1.784379e-05
        2.800000e+03         7.468642e-06         1.829053e-05
        2.900000e+03         7.891866e-06         1.872077e-05
        3.000000e+03         8.316886e-06         1.913480e-05
        3.100000e+03         8.742990e-06         1.953295e-05
        3.200000e+03         9.169509e-06         1.991557e-05
        3.300000e+03         9.595815e-06         2.028305e-05
        3.400000e+03         1.002132e-05         2.063578e-05
        3.500000e+03         1.044547e-05         2.097418e-05
        3.600000e+03         1.086778e-05         2.129867e-05
        3.700000e+03         1.128776e-05         2.160971e-05
        3.800000e+03         1.170499e-05         2.190773e-05
        3.900000e+03         1.211908e-05         2.219320e-05
        4.000000e+03         1.252967e-05         2.246656e-05
        4.100000e+03         1.293644e-05         2.272827e-05
        4.200000e+03         1.333911e-05         2.297879e-05
        4.300000e+03         1.373740e-05         2.321857e-05
        4.400000e+03         1.413111e-05         2.344806e-05
        4.500000e+03         1.452001e-05         2.366769e-05
        4.600000e+03         1.490395e-05         2.387790e-05
        4.700000e+03         1.528276e-05         2.407910e-05
        4.800000e+03         1.565633e-05         2.427173e-05
        4.900000e+03         1.602455e-05         2.445617e-05
        5.000000e+03         1.638733e-05         2.463282e-05
        5.100000e+03         1.674461e-05         2.480206e-05
        5.200000e+03         1.709634e-05         2.496427e-05
        5.300000e+03         1.744248e-05         2.511980e-05
        5.400000e+03         1.778302e-05         2.526899e-05
        5.500000e+03         1.811794e-05         2.541219e-05
