         f               ZTrans.real        ZTrans.imaginary  
        [Hz]               [Ohm/m]              [Ohm/m]       
        1.100000e+00         2.410550e-12         1.579137e-08
        1.200000e+00         2.868754e-12         1.722695e-08
        1.300000e+00         3.366801e-12         1.866252e-08
        1.400000e+00         3.904693e-12         2.009810e-08
        1.500000e+00         4.482428e-12         2.153368e-08
        1.600000e+00         5.100007e-12         2.296926e-08
        1.700000e+00         5.757430e-12         2.440484e-08
        1.800000e+00         6.454696e-12         2.584042e-08
        1.900000e+00         7.191806e-12         2.727600e-08
        2.000000e+00         7.968760e-12         2.871157e-08
        2.100000e+00         8.785558e-12         3.014715e-08
        2.200000e+00         9.642200e-12         3.158273e-08
        2.300000e+00         1.053869e-11         3.301831e-08
        2.400000e+00         1.147501e-11         3.445389e-08
        2.500000e+00         1.245119e-11         3.588947e-08
        2.600000e+00         1.346720e-11         3.732504e-08
        2.700000e+00         1.452306e-11         3.876062e-08
        2.800000e+00         1.561877e-11         4.019620e-08
        2.900000e+00         1.675432e-11         4.163178e-08
        3.000000e+00         1.792971e-11         4.306736e-08
        3.100000e+00         1.914494e-11         4.450293e-08
        3.200000e+00         2.040002e-11         4.593851e-08
        3.300000e+00         2.169495e-11         4.737409e-08
        3.400000e+00         2.302971e-11         4.880967e-08
        3.500000e+00         2.440432e-11         5.024524e-08
        3.600000e+00         2.581878e-11         5.168082e-08
        3.700000e+00         2.727307e-11         5.311640e-08
        3.800000e+00         2.876722e-11         5.455198e-08
        3.900000e+00         3.030120e-11         5.598755e-08
        4.000000e+00         3.187503e-11         5.742313e-08
        4.100000e+00         3.348870e-11         5.885871e-08
        4.200000e+00         3.514222e-11         6.029429e-08
        4.300000e+00         3.683558e-11         6.172986e-08
        4.400000e+00         3.856878e-11         6.316544e-08
        4.500000e+00         4.034183e-11         6.460102e-08
        4.600000e+00         4.215472e-11         6.603659e-08
        4.700000e+00         4.400745e-11         6.747217e-08
        4.800000e+00         4.590003e-11         6.890775e-08
        4.900000e+00         4.783246e-11         7.034332e-08
        5.000000e+00         4.980472e-11         7.177890e-08
        5.100000e+00         5.181683e-11         7.321448e-08
        5.200000e+00         5.386878e-11         7.465005e-08
        5.300000e+00         5.596058e-11         7.608563e-08
        5.400000e+00         5.809222e-11         7.752120e-08
        5.500000e+00         6.026370e-11         7.895678e-08
        5.600000e+00         6.247503e-11         8.039235e-08
        5.700000e+00         6.472620e-11         8.182793e-08
        5.800000e+00         6.701721e-11         8.326351e-08
        5.900000e+00         6.934807e-11         8.469908e-08
        6.000000e+00         7.171877e-11         8.613466e-08
        6.100000e+00         7.412932e-11         8.757023e-08
        6.200000e+00         7.657971e-11         8.900581e-08
        6.300000e+00         7.906994e-11         9.044138e-08
        6.400000e+00         8.160002e-11         9.187696e-08
        6.500000e+00         8.416993e-11         9.331253e-08
        6.600000e+00         8.677970e-11         9.474811e-08
        6.700000e+00         8.942930e-11         9.618368e-08
        6.800000e+00         9.211875e-11         9.761925e-08
        6.900000e+00         9.484805e-11         9.905483e-08
        7.000000e+00         9.761718e-11         1.004904e-07
        7.100000e+00         1.004262e-10         1.019260e-07
        7.200000e+00         1.032750e-10         1.033615e-07
        7.300000e+00         1.061637e-10         1.047971e-07
        7.400000e+00         1.090922e-10         1.062327e-07
        7.500000e+00         1.120605e-10         1.076683e-07
        7.600000e+00         1.150687e-10         1.091038e-07
        7.700000e+00         1.181168e-10         1.105394e-07
        7.800000e+00         1.212046e-10         1.119750e-07
        7.900000e+00         1.243324e-10         1.134106e-07
        8.000000e+00         1.274999e-10         1.148461e-07
        8.100000e+00         1.307074e-10         1.162817e-07
        8.200000e+00         1.339546e-10         1.177173e-07
        8.300000e+00         1.372417e-10         1.191528e-07
        8.400000e+00         1.405687e-10         1.205884e-07
        8.500000e+00         1.439354e-10         1.220240e-07
        8.600000e+00         1.473421e-10         1.234596e-07
        8.700000e+00         1.507885e-10         1.248951e-07
        8.800000e+00         1.542749e-10         1.263307e-07
        8.900000e+00         1.578010e-10         1.277663e-07
        9.000000e+00         1.613670e-10         1.292018e-07
        9.100000e+00         1.649729e-10         1.306374e-07
        9.200000e+00         1.686186e-10         1.320730e-07
        9.300000e+00         1.723041e-10         1.335086e-07
        9.400000e+00         1.760295e-10         1.349441e-07
        9.500000e+00         1.797947e-10         1.363797e-07
        9.600000e+00         1.835998e-10         1.378153e-07
        9.700000e+00         1.874447e-10         1.392508e-07
        9.800000e+00         1.913294e-10         1.406864e-07
        9.900000e+00         1.952540e-10         1.421220e-07
        1.000000e+01         1.992184e-10         1.435575e-07
        1.100000e+01         2.410542e-10         1.579132e-07
        1.200000e+01         2.868742e-10         1.722689e-07
        1.300000e+01         3.366785e-10         1.866245e-07
        1.400000e+01         3.904670e-10         2.009801e-07
        1.500000e+01         4.482399e-10         2.153357e-07
        1.600000e+01         5.099969e-10         2.296912e-07
        1.700000e+01         5.757381e-10         2.440467e-07
        1.800000e+01         6.454635e-10         2.584022e-07
        1.900000e+01         7.191731e-10         2.727577e-07
        2.000000e+01         7.968668e-10         2.871131e-07
        2.100000e+01         8.785446e-10         3.014684e-07
        2.200000e+01         9.642064e-10         3.158237e-07
        2.300000e+01         1.053852e-09         3.301790e-07
        2.400000e+01         1.147482e-09         3.445343e-07
        2.500000e+01         1.245096e-09         3.588894e-07
        2.600000e+01         1.346694e-09         3.732446e-07
        2.700000e+01         1.452276e-09         3.875996e-07
        2.800000e+01         1.561841e-09         4.019547e-07
        2.900000e+01         1.675391e-09         4.163096e-07
        3.000000e+01         1.792924e-09         4.306645e-07
        3.100000e+01         1.914441e-09         4.450194e-07
        3.200000e+01         2.039942e-09         4.593742e-07
        3.300000e+01         2.169426e-09         4.737289e-07
        3.400000e+01         2.302894e-09         4.880835e-07
        3.500000e+01         2.440346e-09         5.024381e-07
        3.600000e+01         2.581781e-09         5.167926e-07
        3.700000e+01         2.727199e-09         5.311471e-07
        3.800000e+01         2.876601e-09         5.455014e-07
        3.900000e+01         3.029987e-09         5.598557e-07
        4.000000e+01         3.187355e-09         5.742099e-07
        4.100000e+01         3.348707e-09         5.885641e-07
        4.200000e+01         3.514043e-09         6.029181e-07
        4.300000e+01         3.683361e-09         6.172721e-07
        4.400000e+01         3.856662e-09         6.316260e-07
        4.500000e+01         4.033947e-09         6.459797e-07
        4.600000e+01         4.215214e-09         6.603334e-07
        4.700000e+01         4.400465e-09         6.746870e-07
        4.800000e+01         4.589698e-09         6.890405e-07
        4.900000e+01         4.782914e-09         7.033939e-07
        5.000000e+01         4.980112e-09         7.177473e-07
        5.100000e+01         5.181294e-09         7.321005e-07
        5.200000e+01         5.386458e-09         7.464536e-07
        5.300000e+01         5.595604e-09         7.608066e-07
        5.400000e+01         5.808733e-09         7.751595e-07
        5.500000e+01         6.025844e-09         7.895122e-07
        5.600000e+01         6.246937e-09         8.038649e-07
        5.700000e+01         6.472013e-09         8.182175e-07
        5.800000e+01         6.701071e-09         8.325699e-07
        5.900000e+01         6.934110e-09         8.469222e-07
        6.000000e+01         7.171132e-09         8.612744e-07
        6.100000e+01         7.412136e-09         8.756265e-07
        6.200000e+01         7.657121e-09         8.899785e-07
        6.300000e+01         7.906088e-09         9.043303e-07
        6.400000e+01         8.159037e-09         9.186820e-07
        6.500000e+01         8.415967e-09         9.330336e-07
        6.600000e+01         8.676879e-09         9.473851e-07
        6.700000e+01         8.941772e-09         9.617364e-07
        6.800000e+01         9.210646e-09         9.760876e-07
        6.900000e+01         9.483502e-09         9.904386e-07
        7.000000e+01         9.760338e-09         1.004790e-06
        7.100000e+01         1.004116e-08         1.019140e-06
        7.200000e+01         1.032595e-08         1.033491e-06
        7.300000e+01         1.061473e-08         1.047841e-06
        7.400000e+01         1.090749e-08         1.062192e-06
        7.500000e+01         1.120423e-08         1.076542e-06
        7.600000e+01         1.150495e-08         1.090892e-06
        7.700000e+01         1.180966e-08         1.105242e-06
        7.800000e+01         1.211834e-08         1.119591e-06
        7.900000e+01         1.243100e-08         1.133941e-06
        8.000000e+01         1.274764e-08         1.148290e-06
        8.100000e+01         1.306826e-08         1.162640e-06
        8.200000e+01         1.339286e-08         1.176989e-06
        8.300000e+01         1.372144e-08         1.191338e-06
        8.400000e+01         1.405401e-08         1.205686e-06
        8.500000e+01         1.439055e-08         1.220035e-06
        8.600000e+01         1.473107e-08         1.234383e-06
        8.700000e+01         1.507556e-08         1.248732e-06
        8.800000e+01         1.542404e-08         1.263080e-06
        8.900000e+01         1.577650e-08         1.277427e-06
        9.000000e+01         1.613293e-08         1.291775e-06
        9.100000e+01         1.649335e-08         1.306123e-06
        9.200000e+01         1.685774e-08         1.320470e-06
        9.300000e+01         1.722611e-08         1.334817e-06
        9.400000e+01         1.759846e-08         1.349164e-06
        9.500000e+01         1.797479e-08         1.363511e-06
        9.600000e+01         1.835510e-08         1.377857e-06
        9.700000e+01         1.873938e-08         1.392204e-06
        9.800000e+01         1.912764e-08         1.406550e-06
        9.900000e+01         1.951988e-08         1.420896e-06
        1.000000e+02         1.991610e-08         1.435242e-06
        1.100000e+02         2.409701e-08         1.578688e-06
        1.200000e+02         2.867552e-08         1.722112e-06
        1.300000e+02         3.365146e-08         1.865512e-06
        1.400000e+02         3.902467e-08         2.008885e-06
        1.500000e+02         4.479495e-08         2.152231e-06
        1.600000e+02         5.096210e-08         2.295546e-06
        1.700000e+02         5.752592e-08         2.438828e-06
        1.800000e+02         6.448617e-08         2.582077e-06
        1.900000e+02         7.184261e-08         2.725289e-06
        2.000000e+02         7.959498e-08         2.868463e-06
        2.100000e+02         8.774302e-08         3.011596e-06
        2.200000e+02         9.628644e-08         3.154687e-06
        2.300000e+02         1.052249e-07         3.297734e-06
        2.400000e+02         1.145582e-07         3.440735e-06
        2.500000e+02         1.242859e-07         3.583687e-06
        2.600000e+02         1.344078e-07         3.726589e-06
        2.700000e+02         1.449234e-07         3.869438e-06
        2.800000e+02         1.558324e-07         4.012234e-06
        2.900000e+02         1.671344e-07         4.154973e-06
        3.000000e+02         1.788290e-07         4.297654e-06
        3.100000e+02         1.909159e-07         4.440275e-06
        3.200000e+02         2.033946e-07         4.582833e-06
        3.300000e+02         2.162646e-07         4.725328e-06
        3.400000e+02         2.295256e-07         4.867757e-06
        3.500000e+02         2.431771e-07         5.010117e-06
        3.600000e+02         2.572185e-07         5.152408e-06
        3.700000e+02         2.716495e-07         5.294626e-06
        3.800000e+02         2.864694e-07         5.436771e-06
        3.900000e+02         3.016779e-07         5.578840e-06
        4.000000e+02         3.172744e-07         5.720831e-06
        4.100000e+02         3.332583e-07         5.862742e-06
        4.200000e+02         3.496291e-07         6.004572e-06
        4.300000e+02         3.663863e-07         6.146318e-06
        4.400000e+02         3.835292e-07         6.287979e-06
        4.500000e+02         4.010573e-07         6.429553e-06
        4.600000e+02         4.189700e-07         6.571037e-06
        4.700000e+02         4.372666e-07         6.712430e-06
        4.800000e+02         4.559465e-07         6.853730e-06
        4.900000e+02         4.750092e-07         6.994935e-06
        5.000000e+02         4.944539e-07         7.136043e-06
        5.100000e+02         5.142799e-07         7.277052e-06
        5.200000e+02         5.344867e-07         7.417961e-06
        5.300000e+02         5.550735e-07         7.558767e-06
        5.400000e+02         5.760396e-07         7.699469e-06
        5.500000e+02         5.973843e-07         7.840065e-06
        5.600000e+02         6.191069e-07         7.980553e-06
        5.700000e+02         6.412066e-07         8.120930e-06
        5.800000e+02         6.636828e-07         8.261197e-06
        5.900000e+02         6.865345e-07         8.401349e-06
        6.000000e+02         7.097611e-07         8.541386e-06
        6.100000e+02         7.333618e-07         8.681306e-06
        6.200000e+02         7.573358e-07         8.821107e-06
        6.300000e+02         7.816822e-07         8.960787e-06
        6.400000e+02         8.064003e-07         9.100344e-06
        6.500000e+02         8.314892e-07         9.239777e-06
        6.600000e+02         8.569480e-07         9.379084e-06
        6.700000e+02         8.827760e-07         9.518263e-06
        6.800000e+02         9.089723e-07         9.657312e-06
        6.900000e+02         9.355359e-07         9.796229e-06
        7.000000e+02         9.624660e-07         9.935014e-06
        7.100000e+02         9.897617e-07         1.007366e-05
        7.200000e+02         1.017422e-06         1.021218e-05
        7.300000e+02         1.045446e-06         1.035055e-05
        7.400000e+02         1.073833e-06         1.048878e-05
        7.500000e+02         1.102582e-06         1.062687e-05
        7.600000e+02         1.131692e-06         1.076482e-05
        7.700000e+02         1.161161e-06         1.090263e-05
        7.800000e+02         1.190990e-06         1.104028e-05
        7.900000e+02         1.221177e-06         1.117779e-05
        8.000000e+02         1.251721e-06         1.131514e-05
        8.100000e+02         1.282620e-06         1.145235e-05
        8.200000e+02         1.313875e-06         1.158940e-05
        8.300000e+02         1.345484e-06         1.172629e-05
        8.400000e+02         1.377445e-06         1.186303e-05
        8.500000e+02         1.409758e-06         1.199961e-05
        8.600000e+02         1.442423e-06         1.213603e-05
        8.700000e+02         1.475437e-06         1.227229e-05
        8.800000e+02         1.508799e-06         1.240838e-05
        8.900000e+02         1.542510e-06         1.254431e-05
        9.000000e+02         1.576566e-06         1.268007e-05
        9.100000e+02         1.610968e-06         1.281567e-05
        9.200000e+02         1.645715e-06         1.295109e-05
        9.300000e+02         1.680804e-06         1.308634e-05
        9.400000e+02         1.716236e-06         1.322142e-05
        9.500000e+02         1.752008e-06         1.335633e-05
        9.600000e+02         1.788120e-06         1.349105e-05
        9.700000e+02         1.824571e-06         1.362561e-05
        9.800000e+02         1.861359e-06         1.375998e-05
        9.900000e+02         1.898483e-06         1.389417e-05
        1.000000e+03         1.935942e-06         1.402818e-05
        1.100000e+03         2.328692e-06         1.535793e-05
        1.200000e+03         2.753577e-06         1.666789e-05
        1.300000e+03         3.209280e-06         1.795672e-05
        1.400000e+03         3.694419e-06         1.922321e-05
        1.500000e+03         4.207558e-06         2.046624e-05
        1.600000e+03         4.747211e-06         2.168480e-05
        1.700000e+03         5.311861e-06         2.287800e-05
        1.800000e+03         5.899961e-06         2.404506e-05
        1.900000e+03         6.509948e-06         2.518531e-05
        2.000000e+03         7.140252e-06         2.629819e-05
        2.100000e+03         7.789304e-06         2.738326e-05
        2.200000e+03         8.455542e-06         2.844017e-05
        2.300000e+03         9.137422e-06         2.946868e-05
        2.400000e+03         9.833423e-06         3.046862e-05
        2.500000e+03         1.054205e-05         3.143996e-05
        2.600000e+03         1.126185e-05         3.238272e-05
        2.700000e+03         1.199141e-05         3.329702e-05
        2.800000e+03         1.272935e-05         3.418303e-05
        2.900000e+03         1.347435e-05         3.504102e-05
        3.000000e+03         1.422514e-05         3.587132e-05
        3.100000e+03         1.498050e-05         3.667430e-05
        3.200000e+03         1.573927e-05         3.745040e-05
        3.300000e+03         1.650033e-05         3.820010e-05
        3.400000e+03         1.726265e-05         3.892392e-05
        3.500000e+03         1.802523e-05         3.962243e-05
        3.600000e+03         1.878714e-05         4.029622e-05
        3.700000e+03         1.954751e-05         4.094591e-05
        3.800000e+03         2.030552e-05         4.157215e-05
        3.900000e+03         2.106042e-05         4.217558e-05
        4.000000e+03         2.181149e-05         4.275690e-05
        4.100000e+03         2.255810e-05         4.331677e-05
        4.200000e+03         2.329965e-05         4.385590e-05
        4.300000e+03         2.403558e-05         4.437497e-05
        4.400000e+03         2.476539e-05         4.487470e-05
        4.500000e+03         2.548865e-05         4.535576e-05
        4.600000e+03         2.620493e-05         4.581885e-05
        4.700000e+03         2.691389e-05         4.626465e-05
        4.800000e+03         2.761518e-05         4.669385e-05
        4.900000e+03         2.830852e-05         4.710709e-05
        5.000000e+03         2.899367e-05         4.750504e-05
        5.100000e+03         2.967041e-05         4.788834e-05
        5.200000e+03         3.033856e-05         4.825762e-05
        5.300000e+03         3.099795e-05         4.861349e-05
        5.400000e+03         3.164847e-05         4.895654e-05
        5.500000e+03         3.229001e-05         4.928735e-05
